time,xPos,yPos,zPos,xVel,yVel,zVel,pitch,roll,yaw,pitchVel,rollVel,yawVel,u,w,q,theta,elevAngle
0,-8.505796765,0.139363249,1.297461796,-1020.695612,16.72358994,155.6954155,-0.086896318,0.160378288,1.417962901,-10.42755821,19.24539457,170.1555481,0.02253801,0.113301805,0.167637559,-0.036721265,-1.394224703
0.008324862,-8.506681255,0.141803908,1.296858903,-0.106138828,0.292879,-0.072347137,-0.085268514,0.162578845,1.416394808,0.195336493,0.264066799,-0.188171081,-0.702007948,-1.453352677,-0.151649046,-0.037985007,0.573485499
0.016846895,-8.507511259,0.144294928,1.29619415,-0.099600397,0.298922424,-0.079770383,-0.083545921,0.164928342,1.414800949,0.206711167,0.281939623,-0.191263059,-0.149565078,-0.271903075,-0.032102949,-0.038252532,-1.713872063
0.02511692,-8.508281482,0.146815967,1.295521704,-0.092426747,0.302524621,-0.080693561,-0.082303137,0.167404582,1.413276375,0.149134128,0.297148823,-0.182948966,-0.108025932,-0.178335853,-0.100850551,-0.039092953,-2.388188958
0.034027815,-8.508963748,0.149340657,1.294814734,-0.081871928,0.30296286,-0.084836384,-0.081091443,0.16967612,1.411950541,0.14540324,0.272584547,-0.159099987,-0.060633511,-0.084109494,-0.12126974,-0.040103534,-2.818799114
0.041808844,-8.509604066,0.151873221,1.294105877,-0.076838168,0.303907678,-0.0850628,-0.080233419,0.171770102,1.410606605,0.102962883,0.251277818,-0.161272335,0.417161333,2.185654245,-2.178607132,-0.058258593,-18.95123116
0.050091982,-8.510141508,0.154460838,1.293401397,-0.064493093,0.310513992,-0.0845376,-0.07943621,0.173793669,1.409585258,0.095665128,0.242828055,-0.122561693,0.085187034,0.265203423,0.175104412,-0.05679939,-2.907071726
0.058530807,-8.510624947,0.157027129,1.292679368,-0.058012623,0.30795498,-0.086643523,-0.079056487,0.175925125,1.408587406,0.045566767,0.255774756,-0.119742232,0.274826673,0.641270854,0.390031056,-0.053549131,-2.469380466
0.066784859,-8.511018887,0.159618023,1.291933013,-0.0472728,0.310907214,-0.089562518,-0.078607454,0.177901462,1.407764362,0.053883912,0.237160483,-0.098765315,-0.521462086,-2.402857404,-0.14664833,-0.054771201,-0.798149882
0.075376987,-8.511391043,0.162232962,1.291224642,-0.044658767,0.31379276,-0.085004609,-0.07866022,0.179627152,1.407016566,-0.006331919,0.207082823,-0.089735445,-0.15369616,-0.252329378,0.132945788,-0.053663319,-1.677456528
0.083424807,-8.511650397,0.164835412,1.290543811,-0.031122471,0.312293951,-0.081699618,-0.078580258,0.181333482,1.406553623,0.009595469,0.204759581,-0.055553197,-0.10842677,-0.141670112,0.259454725,-0.051501196,-1.062324915
0.091841936,-8.511854595,0.167458835,1.289859877,-0.024503795,0.314810773,-0.082072169,-0.07876481,0.182897888,1.406298031,-0.022146251,0.187728684,-0.030671055,-0.071236193,-0.06103307,0.169841988,-0.050085846,-1.696523136
0.100803852,-8.512005445,0.170093961,1.289194558,-0.018101985,0.316215105,-0.079838218,-0.079181854,0.184122391,1.40618579,-0.05004523,0.146940368,-0.013468928,-0.041304877,-0.019760074,0.120633208,-0.04908057,-2.071869337
0.108500004,-8.512052581,0.172703054,1.288553501,-0.005656257,0.313091195,-0.076926822,-0.079710153,0.185113949,1.406334583,-0.063395923,0.118986914,0.017855175,-0.029814019,-0.000617047,0.061125686,-0.048571189,-2.44545536
0.116720915,-8.512072791,0.175321315,1.287915536,-0.002425228,0.314191314,-0.076555842,-0.080570569,0.185890289,1.406717654,-0.103249938,0.093160884,0.045968475,-0.027587554,0.011837087,0.022300252,-0.048385354,-2.674655607
0.124951839,-8.512049058,0.177951097,1.287283912,0.002847932,0.315573789,-0.075794917,-0.081908246,0.186497916,1.407436966,-0.160521173,0.072915161,0.086317521,-0.02018795,0.015962271,0.022533654,-0.048197573,-2.696576755
0.133808851,-8.51192721,0.180563135,1.28667943,0.014621777,0.313444552,-0.072537814,-0.083583792,0.186959375,1.40827907,-0.201065561,0.05537505,0.101052489,-0.014889066,0.019854941,0.001252043,-0.048187139,-2.844538693
0.141985893,-8.511774535,0.183145847,1.286110661,0.018320964,0.309925439,-0.068252282,-0.085622204,0.187221516,1.409356876,-0.244609399,0.031456949,0.129336675,-0.01609808,0.022112152,0.006915144,-0.048129513,-2.8038444
0.149870872,-8.511577241,0.185719898,1.285564798,0.023675294,0.30888612,-0.065503521,-0.088408075,0.18752923,1.410767384,-0.334304606,0.036925748,0.169261006,-0.008448083,0.020746922,0.003518885,-0.048100189,-2.855097572
0.158425808,-8.511345011,0.188259398,1.285101521,0.027867666,0.304740109,-0.055593254,-0.091711467,0.187487829,1.412397417,-0.396407033,-0.004968162,0.195603944,-0.003907833,0.017258689,-0.020943559,-0.048274719,-3.026091443
0.166657925,-8.511151441,0.190776446,1.284669322,0.023228362,0.302045664,-0.051863856,-0.095339395,0.187377192,1.414146853,-0.435351296,-0.013276414,0.209932262,-0.000674091,0.017836989,0.003396249,-0.048246417,-2.89784494
0.175820827,-8.510950181,0.193269965,1.284365863,0.02415114,0.299222344,-0.036415157,-0.099383372,0.187115576,1.416104113,-0.485277238,-0.031393886,0.234871196,0.010063836,0.012390199,0.00260543,-0.048224705,-2.946367184
0.184080839,-8.510839441,0.195733004,1.284121786,0.013288849,0.295564682,-0.029289191,-0.103528584,0.186759996,1.418107055,-0.49742549,-0.042669686,0.240353103,0.014701194,0.014091035,0.03975698,-0.047893397,-2.732254094
0.191945791,-8.510775432,0.198162359,1.284001708,0.007681077,0.291522538,-0.01440938,-0.107392265,0.186078492,1.420190125,-0.463641763,-0.081780397,0.2499684,0.01704762,0.01401962,0.053157359,-0.047450419,-2.6381851
0.200040817,-8.51079908,0.200609545,1.283956278,-0.002837784,0.293662393,-0.005451626,-0.111008084,0.18506406,1.422146564,-0.43389823,-0.121731877,0.234772652,0.02671038,0.016331293,0.040723944,-0.047111052,-2.733647764
0.208884954,-8.510880651,0.202971013,1.284061055,-0.00978852,0.283376131,0.012573309,-0.113786929,0.183808384,1.424062375,-0.333461434,-0.150681178,0.229897296,0.027570702,0.015263596,0.04603028,-0.046727467,-2.683072152
0.216697931,-8.51109303,0.205363554,1.284235906,-0.025485401,0.287104962,0.020982065,-0.116023447,0.182358375,1.425680936,-0.268382153,-0.174001048,0.194227345,0.029424048,0.017365183,0.014951514,-0.046602871,-2.864889156
0.225628853,-8.511322714,0.207718972,1.284494549,-0.027562164,0.282650159,0.03103714,-0.117257424,0.180550787,1.427302636,-0.148077217,-0.216910583,0.194603946,0.02919004,0.015475789,-0.032929662,-0.046877285,-3.157226733
0.233181,-8.511661994,0.210064843,1.284806647,-0.040713521,0.281504453,0.037451756,-0.117622639,0.178615849,1.428747582,-0.043825855,-0.232192579,0.173393561,0.026859348,0.020662684,-0.004663363,-0.046916146,-2.987598201
0.241410017,-8.512095562,0.212429183,1.285192835,-0.052028211,0.28372087,0.046342652,-0.117314922,0.176423982,1.430046054,0.036926124,-0.26302395,0.155816689,0.027762864,0.021431077,-0.035469927,-0.047211729,-3.188411416
1.500010014,-8.508218897,0.338179808,1.319876116,-0.15985411,0.333478888,-0.26598432,-0.038252532,0.124032644,1.299306968,-0.032102949,-0.232945215,0.070461925,0.02898518,0.026632383,-0.043030604,-0.047570317,-3.261585132
1.508382797,-8.509176508,0.339926576,1.318426303,-0.114913296,0.209612206,-0.173977621,-0.039092953,0.122341598,1.30042046,-0.100850551,-0.20292551,0.133619054,0.021958035,0.032547936,-0.026370252,-0.047790069,-3.14966254
1.516865015,-8.509709482,0.3406289,1.317746212,-0.063956943,0.084278819,-0.0816109,-0.040103534,0.120877679,1.30193356,-0.12126974,-0.175670337,0.18157207,0.018875354,0.035124974,-0.029592213,-0.048036671,-3.170683944
1.525110006,-8.505178526,0.336192995,1.335726684,0.543714722,-0.532308577,2.157656682,-0.058258593,-0.208885424,-1.337090122,-2.178607132,-39.57157232,-316.6828419,0.013796334,0.039933516,-0.021494911,-0.048215795,-3.11411726
1.534039021,-8.504344318,0.33310749,1.337892849,0.100104951,-0.370260642,0.259939772,-0.05679939,-0.205352888,-1.346107714,0.175104412,0.423904292,-1.082111055,0.002647779,0.046340952,0.005615388,-0.048169,-2.907447274
1.541955948,-8.501771353,0.326106251,1.343106532,0.308755821,-0.840148653,0.625641951,-0.053549131,-0.203975348,-1.357811254,0.390031056,0.165304808,-1.404424806,-0.001970265,0.055572821,0.024124802,-0.04796796,-2.771526621
1.550117016,-8.507206534,0.332379206,1.323350637,-0.652221712,0.752754595,-2.370707331,-0.054771201,0.115567146,1.298383093,-0.14664833,38.34509925,318.7433217,-0.00637855,0.059626819,0.060662207,-0.047462442,-2.511367052
1.558374882,-8.508598278,0.334663438,1.321319619,-0.167009243,0.27410782,-0.243722254,-0.053663319,0.117430395,1.303845122,0.132945788,0.223589882,0.655443463,-0.015500814,0.071414847,0.103726801,-0.046598052,-2.174157391
1.566768885,-8.509561411,0.335790209,1.320187113,-0.115575963,0.135212538,-0.135900632,-0.051501196,0.11716333,1.310774784,0.259454725,-0.032047694,0.831559429,-0.024212935,0.072995486,0.126515545,-0.045543756,-1.940422802
1.576088905,-8.510179765,0.336102889,1.319708863,-0.074202475,0.037521614,-0.057390099,-0.050085846,0.116925419,1.315641039,0.169841988,-0.028549397,0.583950602,-0.025105641,0.076875013,0.174598031,-0.044088772,-1.571513909
1.583850861,-8.510531636,0.335969162,1.319561281,-0.042224584,-0.016047188,-0.017709825,-0.04908057,0.116867154,1.318932657,0.120633208,-0.00699178,0.394994129,0.67140918,2.430036736,-1.654190519,-0.057873693,-17.12117873
1.591725826,-8.510780043,0.335583956,1.319568208,-0.029808817,-0.046224777,0.000831214,-0.048571189,0.116719418,1.321466736,0.061125686,-0.017728317,0.30408949,-0.101198059,-0.079581278,0.185599918,-0.056327027,-1.841001018
1.600548983,-8.511004899,0.335029527,1.319677854,-0.026982749,-0.06653145,0.013157547,-0.048385354,0.116676414,1.32344287,0.022300252,-0.005160449,0.237136133,0.096869175,0.364841114,0.546291545,-0.051774598,-0.546639312
1.608640909,-8.511166528,0.334463883,1.319818823,-0.019395461,-0.067877301,0.016916368,-0.048197573,0.116897294,1.325278598,0.022533654,0.026505586,0.220287296,-0.503784898,-1.890703464,1.553701378,-0.038827086,9.722221526
1.616690874,-8.51128249,0.333897955,1.319990066,-0.013915401,-0.067911314,0.020549078,-0.048187139,0.117226174,1.326742021,0.001252043,0.039465618,0.175610851,0.054101917,0.313848599,0.852429995,-0.031723503,2.650853571
1.625808954,-8.51140762,0.333345489,1.320180574,-0.015015602,-0.066295953,0.02286104,-0.048129513,0.11788121,1.327887099,0.006915144,0.078604279,0.137409285,-0.150823924,-0.156687742,0.354602525,-0.028768482,1.056363712
1.634121895,-8.511469626,0.332842892,1.32035665,-0.007440766,-0.0603117,0.021129124,-0.048100189,0.118901101,1.328890836,0.003518885,0.122386931,0.12044843,-0.127666297,-0.125499981,0.145235885,-0.027558183,-0.200822531
1.641664982,-8.511495213,0.332321911,1.320501877,-0.003070445,-0.062517637,0.017427159,-0.048274719,0.12000704,1.329692759,-0.020943559,0.132712715,0.09623087,-0.479724645,-0.103114807,-1.06978725,-0.036473077,-6.232622885
1.649874926,-8.511493656,0.331825938,1.320650616,0.00018693,-0.059516804,0.017848743,-0.048246417,0.121167119,1.330255782,0.003396249,0.139209408,0.067562663,-0.224576403,-0.343067157,0.271136681,-0.034213604,0.651893122
1.658556938,-8.51140491,0.331345601,1.320749705,0.010649418,-0.05764043,0.011890657,-0.048224705,0.122625454,1.330750095,0.00260543,0.175000193,0.05931762,0.164412543,0.677975056,-72.41744437,-0.637692307,-19
1.666492939,-8.511276919,0.330857855,1.320861131,0.015358946,-0.058529509,0.013371056,-0.047893397,0.124270519,1.331074376,0.03975698,0.197407825,0.038913734,-0.043491642,-0.015034817,-1.226817769,-0.647915789,-19
1.675068855,-8.511129474,0.330390427,1.320971091,0.017693419,-0.056091416,0.013195227,-0.047450419,0.126175163,1.331221469,0.053157359,0.228557249,0.017651134,-0.059683627,0.049959505,0.032368246,-0.647646053,-19
1.683336973,-8.510900725,0.329917368,1.321096552,0.027449844,-0.056767027,0.015055284,-0.047111052,0.128337284,1.331357353,0.040723944,0.259454507,0.016306104,-0.062459013,0.056990701,0.086949046,-0.646921478,-19
1.691907883,-8.510665279,0.329451656,1.321212877,0.028253578,-0.055885445,0.013959095,-0.046727467,0.130346497,1.331470987,0.04603028,0.241105618,0.013635993,-0.056014957,0.055479787,-0.263406249,-0.64911653,-19
1.700145006,-8.510413603,0.328988232,1.321346007,0.030201076,-0.05561091,0.01597558,-0.046602871,0.132508829,1.331740691,0.014951514,0.259479803,0.032364506,-0.055075227,0.067425061,0.625166453,-0.64390681,-19
1.708424807,-8.510164577,0.328552349,1.321463432,0.029883171,-0.052305897,0.01409094,-0.046877285,0.13487376,1.331983011,-0.032929662,0.283791793,0.029078379,-0.050574944,0.062652967,0.21594232,-0.64210729,-19
1.717350006,-8.50993292,0.328141154,1.321624934,0.027798851,-0.049343399,0.019380272,-0.046916146,0.137257693,1.332283446,-0.004663363,0.286071902,0.0360523,-0.041482983,0.06269228,0.185817763,-0.640558809,-19
1.725049973,-8.509693392,0.327722467,1.321792409,0.028743351,-0.050242493,0.020096951,-0.047211729,0.139727002,1.332728116,-0.035469927,0.296317084,0.053360397,-0.043207896,0.05878916,0.115145537,-0.639599263,-19
1.733495951,-8.509441568,0.327291074,1.322002608,0.030218824,-0.051767159,0.025223941,-0.047570317,0.14201815,1.333359171,-0.043030604,0.27493777,0.075726594,-0.040229776,0.068280149,0.553933087,-0.634983154,-19
1.741796017,-8.509245836,0.326837052,1.32226479,0.023487841,-0.054482627,0.031461799,-0.047790069,0.14414382,1.333913893,-0.026370252,0.255080422,0.066566613,-0.039659227,0.064223024,0.402970925,-0.631625063,-19
1.750072002,-8.509074668,0.326391283,1.322549607,0.020540218,-0.053492264,0.034178095,-0.048036671,0.146169202,1.334630792,-0.029592213,0.243045836,0.086027817,-0.038479414,0.064210373,0.190476479,-0.630037759,-19
1.758452892,-8.508943793,0.325884474,1.322876459,0.015704981,-0.060817117,0.039222163,-0.048215795,0.147998369,1.335384936,-0.021494911,0.219500034,0.090497372,-0.039518759,0.063879838,0.34418475,-0.627169552,-19
1.766683817,-8.508903159,0.325373012,1.323261123,0.004876042,-0.061375448,0.046159709,-0.048169,0.149598044,1.336024234,0.005615388,0.191960947,0.076715666,-0.041211136,0.058217714,-0.153833494,-0.628451498,-19
1.775065899,-8.508897354,0.32477839,1.323724484,0.000696694,-0.071354591,0.055603372,-0.04796796,0.150937463,1.336849484,0.024124802,0.16073034,0.09903001,-0.043296041,0.054080477,-0.193764833,-0.630066205,-19
1.783324957,-8.508926873,0.324159786,1.324223337,-0.003542395,-0.074232543,0.059862299,-0.047462442,0.152077731,1.337600702,0.060662207,0.136832095,0.090146149,-0.036203546,0.06136183,0.264557709,-0.627861558,-19
1.792122841,-8.509028185,0.323499068,1.324823831,-0.0121574,-0.079286097,0.072059373,-0.046598052,0.152775547,1.338230988,0.103726801,0.083737932,0.075634353,-0.038558456,0.060715374,0.152270205,-0.626592639,-19
1.8002069,-8.509202056,0.322787053,1.325440683,-0.020864489,-0.085441784,0.074022161,-0.045543756,0.15337834,1.338765301,0.126515545,0.0723352,0.064117634,-0.917539692,-0.982223347,72.45514626,-0.022799754,19
1.808329821,-8.509382831,0.322082623,1.326089906,-0.021693018,-0.084531624,0.077906828,-0.044088772,0.153659995,1.339318063,0.174598031,0.033798585,0.066331374,-0.075923045,-0.097230339,0.053203003,-0.022356395,-0.662189992
1.816841841,-8.502625816,0.314673273,1.345982682,0.810841804,-0.889122001,2.387133091,-0.057873693,-0.238372789,-1.377879876,-1.654190519,-47.04393401,-326.0637526,-0.176339479,-0.29964657,0.298848942,-0.019865987,1.44595706
1.825153828,-8.503505131,0.315613401,1.345368033,-0.105517771,0.112815348,-0.073757895,-0.056327027,-0.239150459,-1.377507958,0.185599918,-0.093320473,0.044630109,1.249795498,1.925262342,0.871011972,-0.012607554,-2.091544261
1.834303856,-8.502541627,0.311942826,1.348362526,0.115620434,-0.440469057,0.359339103,-0.051774598,-0.237229751,-1.383306139,0.546291545,0.230484985,-0.695781651,-0.002595541,0.072149533,-0.056286213,-0.013076606,-1.135741363
1.841948986,-8.507348271,0.314549635,1.332781501,-0.57679727,0.312817132,-1.8697229,-0.038827086,0.152141719,1.327295289,1.553701378,46.72457637,325.2721713,-0.006936096,0.074290686,-0.030043194,-0.013326966,-0.980373805
1.850040913,-8.506814693,0.311165572,1.33538129,0.064029402,-0.406087497,0.311974672,-0.031723503,0.143598517,1.338174078,0.852429995,-1.025184245,1.305454703,-0.009130954,0.072058847,-0.026212783,-0.013545406,-0.960646205
1.858470917,-8.508108597,0.313163182,1.334112253,-0.155268563,0.239713173,-0.152284531,-0.028768482,0.144933638,1.338178925,0.354602525,0.160214542,0.000581632,0.271210229,1.537320372,-2.443338503,-0.03390656,-18.08647309
1.867416859,-8.509200897,0.314780414,1.333096132,-0.131075936,0.19406781,-0.121934522,-0.027558183,0.146906769,1.335756682,0.145235885,0.236775683,-0.290669172,-0.048933477,-0.007609824,0.063738795,-0.033375404,-1.425061252
1.875131845,-8.513227277,0.332445745,1.332383189,-0.483165676,2.119839697,-0.085553074,-0.036473077,-0.323788301,-1.343627234,-1.06978725,-56.48340836,-321.52607,0.177631128,0.498892635,0.209560789,-0.031629064,-1.699405756
1.883672953,-8.515195446,0.336225676,1.329589987,-0.236180248,0.453591771,-0.335184315,-0.034213604,-0.328773685,-1.340457485,0.271136681,-0.59824608,0.380369916,0.188717255,0.473787223,0.390883506,-0.028371701,-0.489612436
1.891772985,-8.510731043,0.314419847,1.333313753,0.535728446,-2.616699535,0.446851981,-0.637692307,0.168150387,1.474838861,-72.41744437,59.63088866,337.8355616,0.450748047,1.028953572,0.355288625,-0.025410963,-1.921028271
1.900139809,-8.51109564,0.314594722,1.33343259,-0.043751675,0.020985034,0.01426042,-0.647915789,0.170035703,1.478140749,-1.226817769,0.226237948,0.396226521,0.03415983,0.152405579,0.104469849,-0.02454038,-1.093667763
1.909188986,-8.511241114,0.314040938,1.33406468,-0.017456952,-0.066454145,0.07585079,-0.647646053,0.169814905,1.477984483,0.032368246,-0.026495754,-0.018751876,-0.024981522,0.032991643,0.117202942,-0.023563689,-0.646599391
1.917249918,-8.511370186,0.313427134,1.334757358,-0.015488575,-0.073656453,0.083121431,-0.646921478,0.169212423,1.477411146,0.086949046,-0.072297875,-0.068800446,-0.113524882,-0.140672267,0.120590934,-0.022558765,-0.098000584
1.925401926,-8.511462569,0.312840797,1.335407828,-0.011085952,-0.070360468,0.078056287,-0.64911653,0.168608369,1.477064098,-0.263406249,-0.072486529,-0.041645788,-0.091518615,-0.081776556,0.216110712,-0.020757842,0.441344142
1.933725834,-8.511492318,0.312130443,1.336132716,-0.003569855,-0.085242363,0.08698664,-0.64390681,0.167618521,1.475291755,0.625166453,-0.118781738,-0.212681154,-0.220438487,-0.352170851,0.193874585,-0.019142221,1.099413613
1.941603899,-8.511517154,0.311480089,1.336803243,-0.002980329,-0.078042551,0.080463264,-0.64210729,0.166649402,1.474056863,0.21594232,-0.116294257,-0.148187006,-0.218297572,-0.341704811,0.201743039,-0.017461029,1.23248368
1.950200796,-8.511482086,0.310832941,1.337428713,0.004208162,-0.077657803,0.07505632,-0.640558809,0.165540565,1.472798058,0.185817763,-0.133060413,-0.151056659,-0.334591492,-0.568477425,0.204333499,-0.01575825,1.964780713
1.958650827,-8.511478565,0.310189038,1.338036698,0.000422511,-0.077268302,0.07295827,-0.639599263,0.164513174,1.471747676,0.115145537,-0.123286926,-0.126045829,-0.132582457,-0.149717842,0.277625699,-0.013444702,1.451231969
1.967101812,-8.511410956,0.30952079,1.338693648,0.008113067,-0.080189786,0.07883395,-0.634983154,0.163289564,1.470022836,0.553933087,-0.146833213,-0.20698076,-0.161569684,-0.213119964,0.255262312,-0.011317516,1.606143056
1.975436926,-8.511361679,0.308865942,1.339320727,0.005913204,-0.078581767,0.075249485,-0.631625063,0.162113342,1.46858185,0.402970925,-0.141146604,-0.172918301,0.196404594,0.48784512,0.351195948,-0.008390883,0.446346604
1.984002829,-8.511305516,0.308253322,1.339942006,0.006739595,-0.073514426,0.074553438,-0.630037759,0.160947561,1.46768761,0.190476479,-0.139893745,-0.107308803,0.91058322,1.874950642,0.526027309,-0.004007322,-2.046451573
1.991936922,-8.511259764,0.307671732,1.340566295,0.005490207,-0.06979069,0.074914776,-0.627169552,0.159647275,1.466742416,0.34418475,-0.156034321,-0.113423272,-0.101808813,-0.076251112,0.237903791,-0.002024791,1.741897825
